250	89.4639	
251	90.0774	
252	90.7858	
253	91.1536	
254	91.2754	
255	91.3635	
256	91.4577	
257	91.6663	
258	92.0258	
259	92.3622	
260	92.7201	
261	92.8658	
262	92.781	
263	92.5802	
264	92.3393	
265	92.0952	
266	92.1053	
267	92.3033	
268	92.7394	
269	93.1776	
270	93.5647	
271	93.9401	
272	94.0517	
273	94.107	
274	94.0972	
275	94.0346	
276	93.9	
277	93.929	
278	94.3324	
279	94.4919	
280	94.6768	
281	94.89	
282	95.0025	
283	95.0005	
284	95.0398	
285	95.0445	
286	95.0396	
287	94.9918	
288	94.9602	
289	94.9365	
290	94.9797	
291	94.9171	
292	94.877	
293	94.8911	
294	94.9398	
295	95.0105	
296	95.1398	
297	95.2059	
298	95.2535	
299	95.28	
300	95.2872	
301	95.2449	
302	95.0774	
303	94.9042	
304	94.6221	
305	94.3976	
306	94.1653	
307	94.004	
308	93.9335	
309	93.9139	
310	93.9867	
311	94.1117	
312	94.3112	
313	94.5073	
314	94.6767	
315	94.8226	
316	94.9653	
317	95.0785	
318	95.17	
319	95.2057	
320	95.2659	
321	95.3088	
322	95.3739	
323	95.3997	
324	95.4462	
325	95.4545	
326	95.3981	
327	95.3568	
328	95.2482	
329	95.1345	
330	94.9921	
331	94.8536	
332	94.7719	
333	94.6937	
334	94.6609	
335	94.6489	
336	94.661	
337	94.6102	
338	94.5071	
339	94.3514	
340	94.1516	
341	93.8644	
342	93.5999	
343	93.2702	
344	92.7649	
345	91.5027	
346	88.8476	
347	84.0369	
348	77.0771	
349	66.7346	
350	54.7138	
351	42.026	
352	31.5725	
353	22.2205	
354	15.0357	
355	9.88755	
356	6.66713	
357	4.70635	
358	3.26814	
359	2.28909	
360	1.63186	
361	1.20329	
362	0.894172	
363	0.686846	
364	0.537685	
365	0.426159	
366	0.349769	
367	0.286238	
368	0.236309	
369	0.199106	
370	0.168527	
371	0.146499	
372	0.12565	
373	0.10961	
374	0.0952254	
375	0.0839849	
376	0.0738158	
377	0.066656	
378	0.0586872	
379	0.052588	
380	0.0470598	
381	0.0430408	
382	0.0388804	
383	0.0359153	
384	0.033484	
385	0.0318433	
386	0.0307335	
387	0.0310796	
388	0.0308904	
389	0.0322163	
390	0.0340202	
391	0.0366592	
392	0.0399941	
393	0.0444909	
394	0.0483462	
395	0.0532758	
396	0.0579305	
397	0.0629091	
398	0.0691551	
399	0.0759984	
400	0.0833723	
401	0.0915573	
402	0.100594	
403	0.110249	
404	0.121582	
405	0.133417	
406	0.145209	
407	0.158208	
408	0.169463	
409	0.17565	
410	0.171502	
411	0.154151	
412	0.12867	
413	0.103729	
414	0.0867446	
415	0.0829269	
416	0.0906704	
417	0.101366	
418	0.11362	
419	0.128129	
420	0.145775	
421	0.167974	
422	0.195654	
423	0.229122	
424	0.273378	
425	0.331383	
426	0.409169	
427	0.507779	
428	0.627877	
429	0.803692	
430	1.06078	
431	1.45222	
432	2.06349	
433	3.0771	
434	4.86939	
435	8.05943	
436	13.7774	
437	23.0305	
438	34.7092	
439	46.6973	
440	56.0692	
441	59.2425	
442	54.9896	
443	46.1313	
444	36.3562	
445	28.2251	
446	22.7449	
447	19.4019	
448	17.4991	
449	16.651	
450	16.6133	
451	17.0889	
452	18.0883	
453	19.7325	
454	22.1473	
455	25.3683	
456	29.8485	
457	35.7517	
458	43.2721	
459	51.9453	
460	61.4006	
461	70.8456	
462	79.0995	
463	84.5753	
464	86.5638	
465	85.1615	
466	80.6346	
467	74.2649	
468	67.2857	
469	60.2243	
470	54.5408	
471	49.4844	
472	45.2793	
473	41.9998	
474	39.4825	
475	37.6879	
476	36.5141	
477	35.8574	
478	35.6551	
479	35.9388	
480	36.725	
481	37.9131	
482	39.4758	
483	41.4188	
484	43.8055	
485	46.7529	
486	50.1553	
487	54.1484	
488	58.9719	
489	64.0092	
490	69.5843	
491	75.1058	
492	80.4528	
493	84.9248	
494	88.6315	
495	91.4092	
496	92.8219	
497	92.9963	
498	92.0113	
499	90.0218	
500	87.1274	
501	83.3574	
502	79.6496	
503	75.9611	
504	72.3988	
505	69.0649	
506	65.8431	
507	63.1568	
508	60.932	
509	59.0981	
510	57.6052	
511	56.3926	
512	55.6159	
513	55.1634	
514	55.0481	
515	55.2361	
516	55.7748	
517	56.5961	
518	57.7123	
519	59.0911	
520	60.8993	
521	62.8688	
522	65.2547	
523	67.8452	
524	70.7735	
525	73.5791	
526	76.5217	
527	79.6255	
528	82.9504	
529	85.7857	
530	88.3655	
531	90.8405	
532	92.7101	
533	94.0024	
534	94.6457	
535	94.715	
536	94.1706	
537	93.0671	
538	91.3546	
539	89.41	
540	87.1712	
541	84.6026	
542	82.0702	
543	79.4763	
544	76.8297	
545	74.3998	
546	72.1088	
547	69.9205	
548	68.0629	
549	66.4946	
550	65.0344	
551	63.9189	
552	63.0054	
553	62.2468	
554	61.7551	
555	61.4769	
556	61.4086	
557	61.549	
558	61.9139	
559	62.4678	
560	63.1858	
561	64.1647	
562	65.2615	
563	66.5535	
564	68.119	
565	69.7175	
566	71.5407	
567	73.3943	
568	75.485	
569	77.3648	
570	79.3762	
571	81.5646	
572	83.659	
573	85.8412	
574	87.7468	
575	89.5297	
576	91.0256	
577	92.4004	
578	93.4426	
579	94.2136	
580	94.7337	
581	94.9162	
582	94.8174	
583	94.4383	
584	93.7767	
585	92.9006	
586	91.7804	
587	90.5258	
588	89.1429	
589	87.7104	
590	86.1383	
591	84.6428	
592	83.0943	
593	81.6297	
594	80.0337	
595	78.6286	
596	77.1866	
597	75.9241	
598	74.8035	
599	73.7414	
600	72.8031	
601	71.9616	
602	71.27	
603	70.6887	
604	70.2207	
605	69.8417	
606	69.6067	
607	69.4944	
608	69.4798	
609	69.5684	
610	69.774	
611	70.0996	
612	70.4927	
613	71.0091	
614	71.5834	
615	72.3002	
616	73.0995	
617	73.928	
618	74.8682	
619	75.9224	
620	76.9689	
621	78.159	
622	79.3242	
623	80.5741	
624	81.8706	
625	83.1406	
626	84.4944	
627	85.8052	
628	86.9867	
629	88.1922	
630	89.3846	
631	90.4241	
632	91.5142	
633	92.3995	
634	93.2016	
635	93.8463	
636	94.4119	
637	94.8309	
638	95.0575	
639	95.1843	
640	95.1567	
641	94.9925	
642	94.6999	
643	94.2699	
644	93.7452	
645	93.1011	
646	92.3923	
647	91.5718	
648	90.6788	
649	89.731	
650	88.7556	
651	87.8346	
652	86.8379	
653	85.8808	
654	84.9332	
655	84.0128	
656	83.126	
657	82.2604	
658	81.4383	
659	80.6997	
660	80.0124	
661	79.4104	
662	78.8246	
663	78.3323	
664	77.8867	
665	77.5229	
666	77.2195	
667	76.9957	
668	76.8568	
669	76.7727	
670	76.7606	
671	76.8172	
672	76.9367	
673	77.107	
674	77.3441	
675	77.6421	
676	78.0001	
677	78.4011	
678	78.8226	
679	79.3273	
680	79.866	
681	80.4648	
682	81.1106	
683	81.7885	
684	82.4643	
685	83.165	
686	83.8633	
687	84.6196	
688	85.3763	
689	86.1507	
690	86.8904	
691	87.6711	
692	88.4365	
693	89.1822	
694	89.853	
695	90.5704	
696	91.2628	
697	91.9285	
698	92.5463	
699	93.0969	
700	93.491	
701	93.9092	
702	94.2653	
703	94.5744	
704	94.7888	
705	94.942	
706	95.0442	
707	95.0708	
708	95.0407	
709	94.9598	
710	94.8051	
711	94.6068	
712	94.3417	
713	94.0268	
714	93.6622	
715	93.282	
716	92.8465	
717	92.3343	
718	91.8458	
719	91.3284	
720	90.7683	
721	90.1994	
722	89.5923	
723	88.981	
724	88.3884	
725	87.8105	
726	87.204	
727	86.6233	
728	86.0577	
729	85.5057	
730	84.9981	
731	84.4711	
732	83.9326	
733	83.4515	
734	83.0428	
735	82.6284	
736	82.2021	
737	81.8039	
738	81.4561	
739	81.0836	
740	80.7493	
741	80.4128	
742	80.1672	
743	79.9413	
744	79.7407	
745	79.5299	
746	79.4025	
747	79.3345	
748	79.2999	
749	79.3398	
750	79.4327	
751	79.5734	
752	79.6955	
753	79.8732	
754	80.1231	
755	80.3453	
756	80.6578	
757	81.0401	
758	81.345	
759	81.6923	
760	82.0687	
761	82.442	
762	82.974	
763	83.4777	
764	83.9328	
765	84.2966	
766	84.5734	
767	84.8086	
768	85.0188	
769	85.2829	
770	85.6612	
771	86.2462	
772	86.8491	
773	87.5423	
774	88.2641	
775	89.0212	
776	89.6518	
777	90.2469	
778	90.8214	
779	91.3198	
780	91.7661	
781	92.2336	
782	92.6424	
783	92.9756	
784	93.2985	
785	93.6096	
786	93.9321	
787	94.198	
788	94.4328	
789	94.661	
790	94.7731	
791	94.8741	
792	94.9631	
793	95.0244	
794	95.0566	
795	95.0131	
796	94.9379	
797	94.8804	
798	94.8037	
799	94.6477	
800	94.5191	
801	94.3445	
802	94.1534	
803	93.9388	
804	93.6989	
805	93.4457	
806	93.1793	
807	92.8697	
808	92.5308	
809	92.1461	
810	91.8454	
811	91.4857	
812	91.1188	
813	90.7583	
814	90.354	
815	89.9862	
816	89.5597	
817	89.1906	
818	88.7767	
819	88.3301	
820	87.7949	
821	87.3368	
822	87.0169	
823	86.7789	
824	86.5937	
825	86.4395	
826	86.2541	
827	86.003	
828	85.7295	
829	85.4183	
830	85.1937	
831	84.9524	
832	84.6907	
833	84.3869	
834	84.1061	
835	83.8886	
836	83.7288	
837	83.5932	
838	83.4692	
839	83.3516	
840	83.1515	
841	83.1288	
842	83.0766	
843	82.9447	
844	82.9091	
845	82.8935	
846	82.788	
847	82.4688	
848	82.5102	
849	82.5361	
850	82.7932	
851	82.8386	
852	82.9492	
853	83.0591	
854	83.1848	
855	83.314	
856	83.4844	
857	83.6712	
858	83.8671	
859	84.0751	
860	84.3054	
861	84.5402	
862	84.7934	
863	85.0704	
864	85.3285	
865	85.4791	
866	85.7494	
867	86.0259	
868	86.5642	
869	86.8425	
870	87.1779	
871	87.5114	
872	87.8314	
873	88.1828	
874	88.4427	
875	88.8377	
876	89.2417	
877	89.5408	
878	89.9691	
879	90.2943	
880	90.5041	
881	90.6749	
882	90.8374	
883	91.0032	
884	91.1668	
885	91.3438	
886	91.5765	
887	91.8148	
888	92.0867	
889	92.394	
890	92.6847	
891	92.9708	
892	93.2423	
893	93.4392	
894	93.605	
895	93.7245	
896	93.8399	
897	93.9324	
898	94.0393	
899	94.1679	
900	94.2772	
901	94.4096	
902	94.4766	
903	94.519	
904	94.5258	
905	94.5521	
906	94.541	
907	94.5701	
908	94.5708	
909	94.5513	
910	94.5364	
911	94.5294	
912	94.3614	
913	94.1404	
914	94.0496	
915	93.9243	
916	93.8164	
917	93.7159	
918	93.6368	
919	93.5519	
920	93.4519	
921	93.3228	
922	93.1515	
923	92.903	
924	92.7593	
925	92.4781	
926	92.3017	
927	92.0787	
928	91.7693	
929	91.4691	
930	91.0277	
931	90.7943	
932	90.5156	
933	90.3301	
934	90.0088	
935	89.7198	
936	89.5514	
937	89.4365	
938	89.2564	
939	89.0656	
940	88.8038	
941	88.6192	
942	88.4251	
943	88.1812	
944	88.0122	
945	87.7805	
946	87.5463	
947	87.3626	
948	87.1379	
949	86.9374	
950	86.7368	
951	86.6113	
952	86.4226	
953	86.2111	
954	86.0398	
955	85.6924	
956	85.5223	
957	85.5286	
958	85.3765	
959	85.208	
960	85.0726	
961	84.9497	
962	84.7915	
963	84.7005	
964	84.6093	
965	84.525	
966	84.4789	
967	84.3746	
968	84.3837	
969	84.3438	
970	84.3314	
971	84.326	
972	84.3194	
973	84.3499	
974	84.4154	
975	84.4488	
976	84.5394	
977	84.7288	
978	84.7492	
979	84.7069	
980	84.7369	
981	84.7534	
982	84.7972	
983	84.897	
984	84.9186	
985	84.7287	
986	85.0183	
987	85.1881	
988	85.3485	
989	85.3337	
990	85.5795	
991	85.7878	
992	85.8458	
993	85.92	
994	86.031	
995	86.1169	
996	86.1644	
997	86.0273	
998	86.3263	
999	86.4178	
1000	86.5517	

